 # potential for l= 2 and q'= 0.5 fm^-1
 
              #q        vl(q,q')
    1.000000E-02   -5.251710E-06
    2.000000E-02   -5.251060E-06
    3.000000E-02   -5.249979E-06
    4.000000E-02   -5.248464E-06
    5.000000E-02   -5.246518E-06
    6.000000E-02   -5.244140E-06
    7.000000E-02   -5.241332E-06
    8.000000E-02   -5.238093E-06
    9.000000E-02   -5.234425E-06
    1.000000E-01   -5.230328E-06
    1.100000E-01   -5.225804E-06
    1.200000E-01   -5.220854E-06
    1.300000E-01   -5.215480E-06
    1.400000E-01   -5.209681E-06
    1.500000E-01   -5.203461E-06
    1.600000E-01   -5.196820E-06
    1.700000E-01   -5.189760E-06
    1.800000E-01   -5.182284E-06
    1.900000E-01   -5.174393E-06
    2.000000E-01   -5.166088E-06
    2.100000E-01   -5.157373E-06
    2.200000E-01   -5.148250E-06
    2.300000E-01   -5.138720E-06
    2.400000E-01   -5.128786E-06
    2.500000E-01   -5.118452E-06
    2.600000E-01   -5.107719E-06
    2.700000E-01   -5.096590E-06
    2.800000E-01   -5.085069E-06
    2.900000E-01   -5.073158E-06
    3.000000E-01   -5.060860E-06
    3.100000E-01   -5.048179E-06
    3.200000E-01   -5.035117E-06
    3.300000E-01   -5.021679E-06
    3.400000E-01   -5.007867E-06
    3.500000E-01   -4.993686E-06
    3.600000E-01   -4.979139E-06
    3.700000E-01   -4.964230E-06
    3.800000E-01   -4.948962E-06
    3.900000E-01   -4.933340E-06
    4.000000E-01   -4.917368E-06
    4.100000E-01   -4.901050E-06
    4.200000E-01   -4.884390E-06
    4.300000E-01   -4.867392E-06
    4.400000E-01   -4.850062E-06
    4.500000E-01   -4.832402E-06
    4.600000E-01   -4.814419E-06
    4.700000E-01   -4.796117E-06
    4.800000E-01   -4.777500E-06
    4.900000E-01   -4.758573E-06
    5.000000E-01   -4.739342E-06
    5.100000E-01   -4.719811E-06
    5.200000E-01   -4.699985E-06
    5.300000E-01   -4.679869E-06
    5.400000E-01   -4.659469E-06
    5.500000E-01   -4.638789E-06
    5.600000E-01   -4.617836E-06
    5.700000E-01   -4.596614E-06
    5.800000E-01   -4.575129E-06
    5.900000E-01   -4.553386E-06
    6.000000E-01   -4.531391E-06
    6.100000E-01   -4.509150E-06
    6.200000E-01   -4.486667E-06
    6.300000E-01   -4.463949E-06
    6.400000E-01   -4.441002E-06
    6.500000E-01   -4.417830E-06
    6.600000E-01   -4.394441E-06
    6.700000E-01   -4.370839E-06
    6.800000E-01   -4.347031E-06
    6.900000E-01   -4.323022E-06
    7.000000E-01   -4.298818E-06
    7.100000E-01   -4.274425E-06
    7.200000E-01   -4.249850E-06
    7.300000E-01   -4.225097E-06
    7.400000E-01   -4.200173E-06
    7.500000E-01   -4.175084E-06
    7.600000E-01   -4.149836E-06
    7.700000E-01   -4.124435E-06
    7.800000E-01   -4.098886E-06
    7.900000E-01   -4.073195E-06
    8.000000E-01   -4.047370E-06
    8.100000E-01   -4.021414E-06
    8.200000E-01   -3.995336E-06
    8.300000E-01   -3.969139E-06
    8.400000E-01   -3.942830E-06
    8.500000E-01   -3.916416E-06
    8.600000E-01   -3.889901E-06
    8.700000E-01   -3.863292E-06
    8.800000E-01   -3.836594E-06
    8.900000E-01   -3.809813E-06
    9.000000E-01   -3.782955E-06
    9.100000E-01   -3.756026E-06
    9.200000E-01   -3.729030E-06
    9.300000E-01   -3.701975E-06
    9.400000E-01   -3.674864E-06
    9.500000E-01   -3.647705E-06
    9.600000E-01   -3.620501E-06
    9.700000E-01   -3.593259E-06
    9.800000E-01   -3.565984E-06
    9.900000E-01   -3.538681E-06
    1.000000E+00   -3.511355E-06
    1.010000E+00   -3.484013E-06
    1.020000E+00   -3.456657E-06
    1.030000E+00   -3.429295E-06
    1.040000E+00   -3.401930E-06
    1.050000E+00   -3.374568E-06
    1.060000E+00   -3.347213E-06
    1.070000E+00   -3.319871E-06
    1.080000E+00   -3.292545E-06
    1.090000E+00   -3.265242E-06
    1.100000E+00   -3.237964E-06
    1.110000E+00   -3.210717E-06
    1.120000E+00   -3.183505E-06
    1.130000E+00   -3.156333E-06
    1.140000E+00   -3.129204E-06
    1.150000E+00   -3.102123E-06
    1.160000E+00   -3.075095E-06
    1.170000E+00   -3.048122E-06
    1.180000E+00   -3.021209E-06
    1.190000E+00   -2.994361E-06
    1.200000E+00   -2.967580E-06
    1.210000E+00   -2.940870E-06
    1.220000E+00   -2.914235E-06
    1.230000E+00   -2.887680E-06
    1.240000E+00   -2.861206E-06
    1.250000E+00   -2.834817E-06
    1.260000E+00   -2.808518E-06
    1.270000E+00   -2.782310E-06
    1.280000E+00   -2.756198E-06
    1.290000E+00   -2.730184E-06
    1.300000E+00   -2.704271E-06
    1.310000E+00   -2.678462E-06
    1.320000E+00   -2.652760E-06
    1.330000E+00   -2.627168E-06
    1.340000E+00   -2.601689E-06
    1.350000E+00   -2.576324E-06
    1.360000E+00   -2.551077E-06
    1.370000E+00   -2.525950E-06
    1.380000E+00   -2.500944E-06
    1.390000E+00   -2.476064E-06
    1.400000E+00   -2.451310E-06
    1.410000E+00   -2.426685E-06
    1.420000E+00   -2.402191E-06
    1.430000E+00   -2.377830E-06
    1.440000E+00   -2.353604E-06
    1.450000E+00   -2.329514E-06
    1.460000E+00   -2.305562E-06
    1.470000E+00   -2.281751E-06
    1.480000E+00   -2.258081E-06
    1.490000E+00   -2.234554E-06
    1.500000E+00   -2.211172E-06
    1.510000E+00   -2.187936E-06
    1.520000E+00   -2.164847E-06
    1.530000E+00   -2.141907E-06
    1.540000E+00   -2.119117E-06
    1.550000E+00   -2.096478E-06
    1.560000E+00   -2.073991E-06
    1.570000E+00   -2.051656E-06
    1.580000E+00   -2.029476E-06
    1.590000E+00   -2.007451E-06
    1.600000E+00   -1.985582E-06
    1.610000E+00   -1.963869E-06
    1.620000E+00   -1.942313E-06
    1.630000E+00   -1.920915E-06
    1.640000E+00   -1.899676E-06
    1.650000E+00   -1.878596E-06
    1.660000E+00   -1.857675E-06
    1.670000E+00   -1.836915E-06
    1.680000E+00   -1.816315E-06
    1.690000E+00   -1.795875E-06
    1.700000E+00   -1.775597E-06
    1.710000E+00   -1.755480E-06
    1.720000E+00   -1.735525E-06
    1.730000E+00   -1.715731E-06
    1.740000E+00   -1.696099E-06
    1.750000E+00   -1.676629E-06
    1.760000E+00   -1.657321E-06
    1.770000E+00   -1.638175E-06
    1.780000E+00   -1.619191E-06
    1.790000E+00   -1.600368E-06
    1.800000E+00   -1.581707E-06
    1.810000E+00   -1.563208E-06
    1.820000E+00   -1.544870E-06
    1.830000E+00   -1.526693E-06
    1.840000E+00   -1.508677E-06
    1.850000E+00   -1.490822E-06
    1.860000E+00   -1.473127E-06
    1.870000E+00   -1.455591E-06
    1.880000E+00   -1.438215E-06
    1.890000E+00   -1.420998E-06
    1.900000E+00   -1.403940E-06
    1.910000E+00   -1.387040E-06
    1.920000E+00   -1.370297E-06
    1.930000E+00   -1.353712E-06
    1.940000E+00   -1.337283E-06
    1.950000E+00   -1.321009E-06
    1.960000E+00   -1.304892E-06
    1.970000E+00   -1.288929E-06
    1.980000E+00   -1.273120E-06
    1.990000E+00   -1.257464E-06
    2.000000E+00   -1.241962E-06
    2.010000E+00   -1.226611E-06
    2.020000E+00   -1.211412E-06
    2.030000E+00   -1.196363E-06
    2.040000E+00   -1.181464E-06
    2.050000E+00   -1.166714E-06
    2.060000E+00   -1.152112E-06
    2.070000E+00   -1.137658E-06
    2.080000E+00   -1.123351E-06
    2.090000E+00   -1.109189E-06
    2.100000E+00   -1.095172E-06
    2.110000E+00   -1.081299E-06
    2.120000E+00   -1.067570E-06
    2.130000E+00   -1.053983E-06
    2.140000E+00   -1.040537E-06
    2.150000E+00   -1.027232E-06
    2.160000E+00   -1.014067E-06
    2.170000E+00   -1.001040E-06
    2.180000E+00   -9.881514E-07
    2.190000E+00   -9.753994E-07
    2.200000E+00   -9.627833E-07
    2.210000E+00   -9.503023E-07
    2.220000E+00   -9.379552E-07
    2.230000E+00   -9.257412E-07
    2.240000E+00   -9.136593E-07
    2.250000E+00   -9.017085E-07
    2.260000E+00   -8.898879E-07
    2.270000E+00   -8.781964E-07
    2.280000E+00   -8.666331E-07
    2.290000E+00   -8.551970E-07
    2.300000E+00   -8.438870E-07
    2.310000E+00   -8.327023E-07
    2.320000E+00   -8.216417E-07
    2.330000E+00   -8.107044E-07
    2.340000E+00   -7.998892E-07
    2.350000E+00   -7.891953E-07
    2.360000E+00   -7.786215E-07
    2.370000E+00   -7.681669E-07
    2.380000E+00   -7.578305E-07
    2.390000E+00   -7.476113E-07
    2.400000E+00   -7.375083E-07
    2.410000E+00   -7.275204E-07
    2.420000E+00   -7.176467E-07
    2.430000E+00   -7.078862E-07
    2.440000E+00   -6.982378E-07
    2.450000E+00   -6.887006E-07
    2.460000E+00   -6.792736E-07
    2.470000E+00   -6.699557E-07
    2.480000E+00   -6.607461E-07
    2.490000E+00   -6.516436E-07
    2.500000E+00   -6.426473E-07
    2.510000E+00   -6.337563E-07
    2.520000E+00   -6.249694E-07
    2.530000E+00   -6.162859E-07
    2.540000E+00   -6.077046E-07
    2.550000E+00   -5.992246E-07
    2.560000E+00   -5.908450E-07
    2.570000E+00   -5.825648E-07
    2.580000E+00   -5.743829E-07
    2.590000E+00   -5.662986E-07
    2.600000E+00   -5.583107E-07
    2.610000E+00   -5.504184E-07
    2.620000E+00   -5.426208E-07
    2.630000E+00   -5.349168E-07
    2.640000E+00   -5.273055E-07
    2.650000E+00   -5.197861E-07
    2.660000E+00   -5.123576E-07
    2.670000E+00   -5.050191E-07
    2.680000E+00   -4.977696E-07
    2.690000E+00   -4.906083E-07
    2.700000E+00   -4.835343E-07
    2.710000E+00   -4.765466E-07
    2.720000E+00   -4.696443E-07
    2.730000E+00   -4.628267E-07
    2.740000E+00   -4.560928E-07
    2.750000E+00   -4.494417E-07
    2.760000E+00   -4.428725E-07
    2.770000E+00   -4.363845E-07
    2.780000E+00   -4.299767E-07
    2.790000E+00   -4.236483E-07
    2.800000E+00   -4.173984E-07
    2.810000E+00   -4.112262E-07
    2.820000E+00   -4.051310E-07
    2.830000E+00   -3.991117E-07
    2.840000E+00   -3.931677E-07
    2.850000E+00   -3.872982E-07
    2.860000E+00   -3.815022E-07
    2.870000E+00   -3.757790E-07
    2.880000E+00   -3.701279E-07
    2.890000E+00   -3.645479E-07
    2.900000E+00   -3.590384E-07
    2.910000E+00   -3.535986E-07
    2.920000E+00   -3.482277E-07
    2.930000E+00   -3.429249E-07
    2.940000E+00   -3.376894E-07
    2.950000E+00   -3.325206E-07
    2.960000E+00   -3.274177E-07
    2.970000E+00   -3.223799E-07
    2.980000E+00   -3.174065E-07
    2.990000E+00   -3.124968E-07
    3.000000E+00   -3.076501E-07
    3.010000E+00   -3.028656E-07
    3.020000E+00   -2.981427E-07
    3.030000E+00   -2.934806E-07
    3.040000E+00   -2.888786E-07
    3.050000E+00   -2.843362E-07
    3.060000E+00   -2.798525E-07
    3.070000E+00   -2.754269E-07
    3.080000E+00   -2.710587E-07
    3.090000E+00   -2.667474E-07
    3.100000E+00   -2.624921E-07
    3.110000E+00   -2.582923E-07
    3.120000E+00   -2.541474E-07
    3.130000E+00   -2.500566E-07
    3.140000E+00   -2.460194E-07
    3.150000E+00   -2.420351E-07
    3.160000E+00   -2.381032E-07
    3.170000E+00   -2.342229E-07
    3.180000E+00   -2.303938E-07
    3.190000E+00   -2.266151E-07
    3.200000E+00   -2.228863E-07
    3.210000E+00   -2.192069E-07
    3.220000E+00   -2.155761E-07
    3.230000E+00   -2.119935E-07
    3.240000E+00   -2.084585E-07
    3.250000E+00   -2.049705E-07
    3.260000E+00   -2.015289E-07
    3.270000E+00   -1.981332E-07
    3.280000E+00   -1.947829E-07
    3.290000E+00   -1.914774E-07
    3.300000E+00   -1.882161E-07
    3.310000E+00   -1.849986E-07
    3.320000E+00   -1.818242E-07
    3.330000E+00   -1.786926E-07
    3.340000E+00   -1.756031E-07
    3.350000E+00   -1.725553E-07
    3.360000E+00   -1.695486E-07
    3.370000E+00   -1.665826E-07
    3.380000E+00   -1.636568E-07
    3.390000E+00   -1.607706E-07
    3.400000E+00   -1.579236E-07
    3.410000E+00   -1.551153E-07
    3.420000E+00   -1.523453E-07
    3.430000E+00   -1.496130E-07
    3.440000E+00   -1.469181E-07
    3.450000E+00   -1.442600E-07
    3.460000E+00   -1.416383E-07
    3.470000E+00   -1.390525E-07
    3.480000E+00   -1.365022E-07
    3.490000E+00   -1.339871E-07
    3.500000E+00   -1.315065E-07
    3.510000E+00   -1.290602E-07
    3.520000E+00   -1.266476E-07
    3.530000E+00   -1.242684E-07
    3.540000E+00   -1.219222E-07
    3.550000E+00   -1.196084E-07
    3.560000E+00   -1.173269E-07
    3.570000E+00   -1.150770E-07
    3.580000E+00   -1.128585E-07
    3.590000E+00   -1.106710E-07
    3.600000E+00   -1.085140E-07
    3.610000E+00   -1.063872E-07
    3.620000E+00   -1.042902E-07
    3.630000E+00   -1.022226E-07
    3.640000E+00   -1.001840E-07
    3.650000E+00   -9.817420E-08
    3.660000E+00   -9.619268E-08
    3.670000E+00   -9.423914E-08
    3.680000E+00   -9.231321E-08
    3.690000E+00   -9.041456E-08
    3.700000E+00   -8.854283E-08
    3.710000E+00   -8.669768E-08
    3.720000E+00   -8.487878E-08
    3.730000E+00   -8.308580E-08
    3.740000E+00   -8.131839E-08
    3.750000E+00   -7.957625E-08
    3.760000E+00   -7.785905E-08
    3.770000E+00   -7.616646E-08
    3.780000E+00   -7.449818E-08
    3.790000E+00   -7.285390E-08
    3.800000E+00   -7.123330E-08
    3.810000E+00   -6.963609E-08
    3.820000E+00   -6.806197E-08
    3.830000E+00   -6.651064E-08
    3.840000E+00   -6.498180E-08
    3.850000E+00   -6.347517E-08
    3.860000E+00   -6.199047E-08
    3.870000E+00   -6.052741E-08
    3.880000E+00   -5.908570E-08
    3.890000E+00   -5.766509E-08
    3.900000E+00   -5.626529E-08
    3.910000E+00   -5.488603E-08
    3.920000E+00   -5.352705E-08
    3.930000E+00   -5.218810E-08
    3.940000E+00   -5.086889E-08
    3.950000E+00   -4.956919E-08
    3.960000E+00   -4.828874E-08
    3.970000E+00   -4.702728E-08
    3.980000E+00   -4.578458E-08
    3.990000E+00   -4.456038E-08
    4.000000E+00   -4.335445E-08
    4.010000E+00   -4.216655E-08
    4.020000E+00   -4.099643E-08
    4.030000E+00   -3.984388E-08
    4.040000E+00   -3.870865E-08
    4.050000E+00   -3.759053E-08
    4.060000E+00   -3.648929E-08
    4.070000E+00   -3.540470E-08
    4.080000E+00   -3.433656E-08
    4.090000E+00   -3.328463E-08
    4.100000E+00   -3.224871E-08
    4.110000E+00   -3.122860E-08
    4.120000E+00   -3.022407E-08
    4.130000E+00   -2.923492E-08
    4.140000E+00   -2.826096E-08
    4.150000E+00   -2.730198E-08
    4.160000E+00   -2.635778E-08
    4.170000E+00   -2.542817E-08
    4.180000E+00   -2.451295E-08
    4.190000E+00   -2.361194E-08
    4.200000E+00   -2.272494E-08
    4.210000E+00   -2.185176E-08
    4.220000E+00   -2.099224E-08
    4.230000E+00   -2.014617E-08
    4.240000E+00   -1.931339E-08
    4.250000E+00   -1.849371E-08
    4.260000E+00   -1.768696E-08
    4.270000E+00   -1.689298E-08
    4.280000E+00   -1.611158E-08
    4.290000E+00   -1.534260E-08
    4.300000E+00   -1.458587E-08
    4.310000E+00   -1.384124E-08
    4.320000E+00   -1.310852E-08
    4.330000E+00   -1.238758E-08
    4.340000E+00   -1.167824E-08
    4.350000E+00   -1.098036E-08
    4.360000E+00   -1.029377E-08
    4.370000E+00   -9.618329E-09
    4.380000E+00   -8.953882E-09
    4.390000E+00   -8.300281E-09
    4.400000E+00   -7.657380E-09
    4.410000E+00   -7.025035E-09
    4.420000E+00   -6.403101E-09
    4.430000E+00   -5.791438E-09
    4.440000E+00   -5.189906E-09
    4.450000E+00   -4.598368E-09
    4.460000E+00   -4.016688E-09
    4.470000E+00   -3.444731E-09
    4.480000E+00   -2.882366E-09
    4.490000E+00   -2.329461E-09
    4.500000E+00   -1.785887E-09
    4.510000E+00   -1.251517E-09
    4.520000E+00   -7.262247E-10
    4.530000E+00   -2.098860E-10
    4.540000E+00    2.976219E-10
    4.550000E+00    7.964202E-10
    4.560000E+00    1.286628E-09
    4.570000E+00    1.768365E-09
    4.580000E+00    2.241746E-09
    4.590000E+00    2.706886E-09
    4.600000E+00    3.163901E-09
    4.610000E+00    3.612900E-09
    4.620000E+00    4.053996E-09
    4.630000E+00    4.487298E-09
    4.640000E+00    4.912913E-09
    4.650000E+00    5.330948E-09
    4.660000E+00    5.741508E-09
    4.670000E+00    6.144698E-09
    4.680000E+00    6.540619E-09
    4.690000E+00    6.929373E-09
    4.700000E+00    7.311060E-09
    4.710000E+00    7.685778E-09
    4.720000E+00    8.053625E-09
    4.730000E+00    8.414697E-09
    4.740000E+00    8.769088E-09
    4.750000E+00    9.116892E-09
    4.760000E+00    9.458202E-09
    4.770000E+00    9.793109E-09
    4.780000E+00    1.012170E-08
    4.790000E+00    1.044407E-08
    4.800000E+00    1.076031E-08
    4.810000E+00    1.107049E-08
    4.820000E+00    1.137471E-08
    4.830000E+00    1.167305E-08
    4.840000E+00    1.196559E-08
    4.850000E+00    1.225242E-08
    4.860000E+00    1.253361E-08
    4.870000E+00    1.280925E-08
    4.880000E+00    1.307942E-08
    4.890000E+00    1.334419E-08
    4.900000E+00    1.360364E-08
    4.910000E+00    1.385785E-08
    4.920000E+00    1.410689E-08
    4.930000E+00    1.435084E-08
    4.940000E+00    1.458976E-08
    4.950000E+00    1.482374E-08
    4.960000E+00    1.505284E-08
    4.970000E+00    1.527713E-08
    4.980000E+00    1.549668E-08
    4.990000E+00    1.571157E-08
    5.000000E+00    1.592185E-08
    5.010000E+00    1.612759E-08
    5.020000E+00    1.632887E-08
    5.030000E+00    1.652574E-08
    5.040000E+00    1.671827E-08
    5.050000E+00    1.690652E-08
    5.060000E+00    1.709056E-08
    5.070000E+00    1.727044E-08
    5.080000E+00    1.744623E-08
    5.090000E+00    1.761799E-08
    5.100000E+00    1.778577E-08
    5.110000E+00    1.794964E-08
    5.120000E+00    1.810965E-08
    5.130000E+00    1.826586E-08
    5.140000E+00    1.841833E-08
    5.150000E+00    1.856710E-08
    5.160000E+00    1.871224E-08
    5.170000E+00    1.885380E-08
    5.180000E+00    1.899184E-08
    5.190000E+00    1.912640E-08
    5.200000E+00    1.925753E-08
    5.210000E+00    1.938529E-08
    5.220000E+00    1.950973E-08
    5.230000E+00    1.963090E-08
    5.240000E+00    1.974885E-08
    5.250000E+00    1.986362E-08
    5.260000E+00    1.997527E-08
    5.270000E+00    2.008384E-08
    5.280000E+00    2.018937E-08
    5.290000E+00    2.029192E-08
    5.300000E+00    2.039152E-08
    5.310000E+00    2.048823E-08
    5.320000E+00    2.058209E-08
    5.330000E+00    2.067314E-08
    5.340000E+00    2.076142E-08
    5.350000E+00    2.084697E-08
    5.360000E+00    2.092985E-08
    5.370000E+00    2.101009E-08
    5.380000E+00    2.108772E-08
    5.390000E+00    2.116280E-08
    5.400000E+00    2.123535E-08
    5.410000E+00    2.130543E-08
    5.420000E+00    2.137306E-08
    5.430000E+00    2.143829E-08
    5.440000E+00    2.150115E-08
    5.450000E+00    2.156168E-08
    5.460000E+00    2.161992E-08
    5.470000E+00    2.167590E-08
    5.480000E+00    2.172966E-08
    5.490000E+00    2.178123E-08
    5.500000E+00    2.183065E-08
    5.510000E+00    2.187795E-08
    5.520000E+00    2.192317E-08
    5.530000E+00    2.196634E-08
    5.540000E+00    2.200749E-08
    5.550000E+00    2.204665E-08
    5.560000E+00    2.208386E-08
    5.570000E+00    2.211915E-08
    5.580000E+00    2.215254E-08
    5.590000E+00    2.218408E-08
    5.600000E+00    2.221378E-08
    5.610000E+00    2.224168E-08
    5.620000E+00    2.226781E-08
    5.630000E+00    2.229220E-08
    5.640000E+00    2.231488E-08
    5.650000E+00    2.233587E-08
    5.660000E+00    2.235520E-08
    5.670000E+00    2.237290E-08
    5.680000E+00    2.238899E-08
    5.690000E+00    2.240351E-08
    5.700000E+00    2.241648E-08
    5.710000E+00    2.242793E-08
    5.720000E+00    2.243787E-08
    5.730000E+00    2.244635E-08
    5.740000E+00    2.245337E-08
    5.750000E+00    2.245897E-08
    5.760000E+00    2.246317E-08
    5.770000E+00    2.246599E-08
    5.780000E+00    2.246746E-08
    5.790000E+00    2.246760E-08
    5.800000E+00    2.246644E-08
    5.810000E+00    2.246399E-08
    5.820000E+00    2.246027E-08
    5.830000E+00    2.245532E-08
    5.840000E+00    2.244915E-08
    5.850000E+00    2.244179E-08
    5.860000E+00    2.243325E-08
    5.870000E+00    2.242355E-08
    5.880000E+00    2.241272E-08
    5.890000E+00    2.240078E-08
    5.900000E+00    2.238774E-08
    5.910000E+00    2.237363E-08
    5.920000E+00    2.235846E-08
    5.930000E+00    2.234225E-08
    5.940000E+00    2.232503E-08
    5.950000E+00    2.230681E-08
    5.960000E+00    2.228761E-08
    5.970000E+00    2.226745E-08
    5.980000E+00    2.224634E-08
    5.990000E+00    2.222431E-08
    6.000000E+00    2.220136E-08
    6.010000E+00    2.217752E-08
    6.020000E+00    2.215281E-08
    6.030000E+00    2.212724E-08
