 # potential for l= 0 and q'= 0.5 fm^-1
 
              #q        vl(q,q')
    1.000000E-02   -1.575500E-05
    2.000000E-02   -1.575281E-05
    3.000000E-02   -1.574916E-05
    4.000000E-02   -1.574406E-05
    5.000000E-02   -1.573750E-05
    6.000000E-02   -1.572949E-05
    7.000000E-02   -1.572003E-05
    8.000000E-02   -1.570913E-05
    9.000000E-02   -1.569678E-05
    1.000000E-01   -1.568299E-05
    1.100000E-01   -1.566777E-05
    1.200000E-01   -1.565112E-05
    1.300000E-01   -1.563305E-05
    1.400000E-01   -1.561357E-05
    1.500000E-01   -1.559267E-05
    1.600000E-01   -1.557037E-05
    1.700000E-01   -1.554668E-05
    1.800000E-01   -1.552160E-05
    1.900000E-01   -1.549515E-05
    2.000000E-01   -1.546732E-05
    2.100000E-01   -1.543814E-05
    2.200000E-01   -1.540761E-05
    2.300000E-01   -1.537574E-05
    2.400000E-01   -1.534254E-05
    2.500000E-01   -1.530803E-05
    2.600000E-01   -1.527221E-05
    2.700000E-01   -1.523510E-05
    2.800000E-01   -1.519672E-05
    2.900000E-01   -1.515706E-05
    3.000000E-01   -1.511615E-05
    3.100000E-01   -1.507400E-05
    3.200000E-01   -1.503063E-05
    3.300000E-01   -1.498605E-05
    3.400000E-01   -1.494026E-05
    3.500000E-01   -1.489330E-05
    3.600000E-01   -1.484518E-05
    3.700000E-01   -1.479590E-05
    3.800000E-01   -1.474549E-05
    3.900000E-01   -1.469396E-05
    4.000000E-01   -1.464133E-05
    4.100000E-01   -1.458761E-05
    4.200000E-01   -1.453283E-05
    4.300000E-01   -1.447701E-05
    4.400000E-01   -1.442015E-05
    4.500000E-01   -1.436227E-05
    4.600000E-01   -1.430340E-05
    4.700000E-01   -1.424356E-05
    4.800000E-01   -1.418275E-05
    4.900000E-01   -1.412101E-05
    5.000000E-01   -1.405835E-05
    5.100000E-01   -1.399478E-05
    5.200000E-01   -1.393033E-05
    5.300000E-01   -1.386502E-05
    5.400000E-01   -1.379887E-05
    5.500000E-01   -1.373190E-05
    5.600000E-01   -1.366412E-05
    5.700000E-01   -1.359556E-05
    5.800000E-01   -1.352623E-05
    5.900000E-01   -1.345616E-05
    6.000000E-01   -1.338537E-05
    6.100000E-01   -1.331388E-05
    6.200000E-01   -1.324170E-05
    6.300000E-01   -1.316886E-05
    6.400000E-01   -1.309538E-05
    6.500000E-01   -1.302127E-05
    6.600000E-01   -1.294657E-05
    6.700000E-01   -1.287128E-05
    6.800000E-01   -1.279544E-05
    6.900000E-01   -1.271905E-05
    7.000000E-01   -1.264214E-05
    7.100000E-01   -1.256474E-05
    7.200000E-01   -1.248685E-05
    7.300000E-01   -1.240850E-05
    7.400000E-01   -1.232972E-05
    7.500000E-01   -1.225051E-05
    7.600000E-01   -1.217091E-05
    7.700000E-01   -1.209092E-05
    7.800000E-01   -1.201057E-05
    7.900000E-01   -1.192988E-05
    8.000000E-01   -1.184887E-05
    8.100000E-01   -1.176756E-05
    8.200000E-01   -1.168596E-05
    8.300000E-01   -1.160410E-05
    8.400000E-01   -1.152199E-05
    8.500000E-01   -1.143966E-05
    8.600000E-01   -1.135712E-05
    8.700000E-01   -1.127438E-05
    8.800000E-01   -1.119147E-05
    8.900000E-01   -1.110841E-05
    9.000000E-01   -1.102521E-05
    9.100000E-01   -1.094189E-05
    9.200000E-01   -1.085847E-05
    9.300000E-01   -1.077496E-05
    9.400000E-01   -1.069138E-05
    9.500000E-01   -1.060775E-05
    9.600000E-01   -1.052409E-05
    9.700000E-01   -1.044040E-05
    9.800000E-01   -1.035671E-05
    9.900000E-01   -1.027303E-05
    1.000000E+00   -1.018938E-05
    1.010000E+00   -1.010577E-05
    1.020000E+00   -1.002222E-05
    1.030000E+00   -9.938739E-06
    1.040000E+00   -9.855344E-06
    1.050000E+00   -9.772049E-06
    1.060000E+00   -9.688867E-06
    1.070000E+00   -9.605814E-06
    1.080000E+00   -9.522901E-06
    1.090000E+00   -9.440141E-06
    1.100000E+00   -9.357549E-06
    1.110000E+00   -9.275135E-06
    1.120000E+00   -9.192913E-06
    1.130000E+00   -9.110894E-06
    1.140000E+00   -9.029091E-06
    1.150000E+00   -8.947514E-06
    1.160000E+00   -8.866174E-06
    1.170000E+00   -8.785084E-06
    1.180000E+00   -8.704252E-06
    1.190000E+00   -8.623691E-06
    1.200000E+00   -8.543409E-06
    1.210000E+00   -8.463417E-06
    1.220000E+00   -8.383724E-06
    1.230000E+00   -8.304339E-06
    1.240000E+00   -8.225273E-06
    1.250000E+00   -8.146532E-06
    1.260000E+00   -8.068127E-06
    1.270000E+00   -7.990065E-06
    1.280000E+00   -7.912354E-06
    1.290000E+00   -7.835003E-06
    1.300000E+00   -7.758018E-06
    1.310000E+00   -7.681406E-06
    1.320000E+00   -7.605176E-06
    1.330000E+00   -7.529334E-06
    1.340000E+00   -7.453886E-06
    1.350000E+00   -7.378838E-06
    1.360000E+00   -7.304197E-06
    1.370000E+00   -7.229969E-06
    1.380000E+00   -7.156158E-06
    1.390000E+00   -7.082771E-06
    1.400000E+00   -7.009813E-06
    1.410000E+00   -6.937289E-06
    1.420000E+00   -6.865202E-06
    1.430000E+00   -6.793559E-06
    1.440000E+00   -6.722363E-06
    1.450000E+00   -6.651618E-06
    1.460000E+00   -6.581328E-06
    1.470000E+00   -6.511496E-06
    1.480000E+00   -6.442127E-06
    1.490000E+00   -6.373224E-06
    1.500000E+00   -6.304789E-06
    1.510000E+00   -6.236826E-06
    1.520000E+00   -6.169337E-06
    1.530000E+00   -6.102324E-06
    1.540000E+00   -6.035791E-06
    1.550000E+00   -5.969739E-06
    1.560000E+00   -5.904170E-06
    1.570000E+00   -5.839087E-06
    1.580000E+00   -5.774490E-06
    1.590000E+00   -5.710381E-06
    1.600000E+00   -5.646763E-06
    1.610000E+00   -5.583635E-06
    1.620000E+00   -5.520999E-06
    1.630000E+00   -5.458856E-06
    1.640000E+00   -5.397206E-06
    1.650000E+00   -5.336051E-06
    1.660000E+00   -5.275390E-06
    1.670000E+00   -5.215224E-06
    1.680000E+00   -5.155554E-06
    1.690000E+00   -5.096379E-06
    1.700000E+00   -5.037699E-06
    1.710000E+00   -4.979514E-06
    1.720000E+00   -4.921825E-06
    1.730000E+00   -4.864629E-06
    1.740000E+00   -4.807928E-06
    1.750000E+00   -4.751720E-06
    1.760000E+00   -4.696004E-06
    1.770000E+00   -4.640780E-06
    1.780000E+00   -4.586047E-06
    1.790000E+00   -4.531804E-06
    1.800000E+00   -4.478050E-06
    1.810000E+00   -4.424783E-06
    1.820000E+00   -4.372002E-06
    1.830000E+00   -4.319706E-06
    1.840000E+00   -4.267894E-06
    1.850000E+00   -4.216563E-06
    1.860000E+00   -4.165713E-06
    1.870000E+00   -4.115341E-06
    1.880000E+00   -4.065446E-06
    1.890000E+00   -4.016025E-06
    1.900000E+00   -3.967078E-06
    1.910000E+00   -3.918601E-06
    1.920000E+00   -3.870594E-06
    1.930000E+00   -3.823054E-06
    1.940000E+00   -3.775978E-06
    1.950000E+00   -3.729365E-06
    1.960000E+00   -3.683211E-06
    1.970000E+00   -3.637516E-06
    1.980000E+00   -3.592277E-06
    1.990000E+00   -3.547491E-06
    2.000000E+00   -3.503155E-06
    2.010000E+00   -3.459267E-06
    2.020000E+00   -3.415826E-06
    2.030000E+00   -3.372827E-06
    2.040000E+00   -3.330269E-06
    2.050000E+00   -3.288148E-06
    2.060000E+00   -3.246463E-06
    2.070000E+00   -3.205210E-06
    2.080000E+00   -3.164387E-06
    2.090000E+00   -3.123991E-06
    2.100000E+00   -3.084019E-06
    2.110000E+00   -3.044468E-06
    2.120000E+00   -3.005335E-06
    2.130000E+00   -2.966618E-06
    2.140000E+00   -2.928314E-06
    2.150000E+00   -2.890419E-06
    2.160000E+00   -2.852931E-06
    2.170000E+00   -2.815847E-06
    2.180000E+00   -2.779164E-06
    2.190000E+00   -2.742878E-06
    2.200000E+00   -2.706988E-06
    2.210000E+00   -2.671489E-06
    2.220000E+00   -2.636379E-06
    2.230000E+00   -2.601655E-06
    2.240000E+00   -2.567314E-06
    2.250000E+00   -2.533353E-06
    2.260000E+00   -2.499768E-06
    2.270000E+00   -2.466558E-06
    2.280000E+00   -2.433717E-06
    2.290000E+00   -2.401244E-06
    2.300000E+00   -2.369136E-06
    2.310000E+00   -2.337390E-06
    2.320000E+00   -2.306001E-06
    2.330000E+00   -2.274968E-06
    2.340000E+00   -2.244287E-06
    2.350000E+00   -2.213956E-06
    2.360000E+00   -2.183970E-06
    2.370000E+00   -2.154328E-06
    2.380000E+00   -2.125026E-06
    2.390000E+00   -2.096061E-06
    2.400000E+00   -2.067430E-06
    2.410000E+00   -2.039130E-06
    2.420000E+00   -2.011158E-06
    2.430000E+00   -1.983510E-06
    2.440000E+00   -1.956185E-06
    2.450000E+00   -1.929179E-06
    2.460000E+00   -1.902489E-06
    2.470000E+00   -1.876112E-06
    2.480000E+00   -1.850045E-06
    2.490000E+00   -1.824285E-06
    2.500000E+00   -1.798829E-06
    2.510000E+00   -1.773674E-06
    2.520000E+00   -1.748818E-06
    2.530000E+00   -1.724257E-06
    2.540000E+00   -1.699989E-06
    2.550000E+00   -1.676011E-06
    2.560000E+00   -1.652319E-06
    2.570000E+00   -1.628911E-06
    2.580000E+00   -1.605785E-06
    2.590000E+00   -1.582936E-06
    2.600000E+00   -1.560364E-06
    2.610000E+00   -1.538064E-06
    2.620000E+00   -1.516034E-06
    2.630000E+00   -1.494271E-06
    2.640000E+00   -1.472773E-06
    2.650000E+00   -1.451537E-06
    2.660000E+00   -1.430560E-06
    2.670000E+00   -1.409839E-06
    2.680000E+00   -1.389372E-06
    2.690000E+00   -1.369156E-06
    2.700000E+00   -1.349189E-06
    2.710000E+00   -1.329467E-06
    2.720000E+00   -1.309989E-06
    2.730000E+00   -1.290752E-06
    2.740000E+00   -1.271752E-06
    2.750000E+00   -1.252989E-06
    2.760000E+00   -1.234458E-06
    2.770000E+00   -1.216158E-06
    2.780000E+00   -1.198086E-06
    2.790000E+00   -1.180240E-06
    2.800000E+00   -1.162616E-06
    2.810000E+00   -1.145214E-06
    2.820000E+00   -1.128030E-06
    2.830000E+00   -1.111062E-06
    2.840000E+00   -1.094308E-06
    2.850000E+00   -1.077765E-06
    2.860000E+00   -1.061431E-06
    2.870000E+00   -1.045303E-06
    2.880000E+00   -1.029380E-06
    2.890000E+00   -1.013659E-06
    2.900000E+00   -9.981376E-07
    2.910000E+00   -9.828139E-07
    2.920000E+00   -9.676855E-07
    2.930000E+00   -9.527504E-07
    2.940000E+00   -9.380062E-07
    2.950000E+00   -9.234509E-07
    2.960000E+00   -9.090823E-07
    2.970000E+00   -8.948983E-07
    2.980000E+00   -8.808968E-07
    2.990000E+00   -8.670757E-07
    3.000000E+00   -8.534329E-07
    3.010000E+00   -8.399665E-07
    3.020000E+00   -8.266743E-07
    3.030000E+00   -8.135544E-07
    3.040000E+00   -8.006049E-07
    3.050000E+00   -7.878236E-07
    3.060000E+00   -7.752087E-07
    3.070000E+00   -7.627583E-07
    3.080000E+00   -7.504705E-07
    3.090000E+00   -7.383433E-07
    3.100000E+00   -7.263748E-07
    3.110000E+00   -7.145633E-07
    3.120000E+00   -7.029069E-07
    3.130000E+00   -6.914037E-07
    3.140000E+00   -6.800520E-07
    3.150000E+00   -6.688500E-07
    3.160000E+00   -6.577959E-07
    3.170000E+00   -6.468880E-07
    3.180000E+00   -6.361245E-07
    3.190000E+00   -6.255037E-07
    3.200000E+00   -6.150239E-07
    3.210000E+00   -6.046835E-07
    3.220000E+00   -5.944808E-07
    3.230000E+00   -5.844142E-07
    3.240000E+00   -5.744819E-07
    3.250000E+00   -5.646825E-07
    3.260000E+00   -5.550143E-07
    3.270000E+00   -5.454757E-07
    3.280000E+00   -5.360652E-07
    3.290000E+00   -5.267812E-07
    3.300000E+00   -5.176223E-07
    3.310000E+00   -5.085868E-07
    3.320000E+00   -4.996734E-07
    3.330000E+00   -4.908804E-07
    3.340000E+00   -4.822065E-07
    3.350000E+00   -4.736503E-07
    3.360000E+00   -4.652102E-07
    3.370000E+00   -4.568848E-07
    3.380000E+00   -4.486729E-07
    3.390000E+00   -4.405729E-07
    3.400000E+00   -4.325835E-07
    3.410000E+00   -4.247033E-07
    3.420000E+00   -4.169311E-07
    3.430000E+00   -4.092654E-07
    3.440000E+00   -4.017050E-07
    3.450000E+00   -3.942486E-07
    3.460000E+00   -3.868948E-07
    3.470000E+00   -3.796425E-07
    3.480000E+00   -3.724903E-07
    3.490000E+00   -3.654371E-07
    3.500000E+00   -3.584815E-07
    3.510000E+00   -3.516224E-07
    3.520000E+00   -3.448586E-07
    3.530000E+00   -3.381889E-07
    3.540000E+00   -3.316122E-07
    3.550000E+00   -3.251271E-07
    3.560000E+00   -3.187327E-07
    3.570000E+00   -3.124278E-07
    3.580000E+00   -3.062113E-07
    3.590000E+00   -3.000819E-07
    3.600000E+00   -2.940388E-07
    3.610000E+00   -2.880807E-07
    3.620000E+00   -2.822067E-07
    3.630000E+00   -2.764156E-07
    3.640000E+00   -2.707063E-07
    3.650000E+00   -2.650780E-07
    3.660000E+00   -2.595295E-07
    3.670000E+00   -2.540599E-07
    3.680000E+00   -2.486680E-07
    3.690000E+00   -2.433531E-07
    3.700000E+00   -2.381140E-07
    3.710000E+00   -2.329498E-07
    3.720000E+00   -2.278596E-07
    3.730000E+00   -2.228424E-07
    3.740000E+00   -2.178973E-07
    3.750000E+00   -2.130234E-07
    3.760000E+00   -2.082198E-07
    3.770000E+00   -2.034855E-07
    3.780000E+00   -1.988196E-07
    3.790000E+00   -1.942214E-07
    3.800000E+00   -1.896899E-07
    3.810000E+00   -1.852243E-07
    3.820000E+00   -1.808238E-07
    3.830000E+00   -1.764874E-07
    3.840000E+00   -1.722144E-07
    3.850000E+00   -1.680039E-07
    3.860000E+00   -1.638552E-07
    3.870000E+00   -1.597675E-07
    3.880000E+00   -1.557399E-07
    3.890000E+00   -1.517717E-07
    3.900000E+00   -1.478621E-07
    3.910000E+00   -1.440103E-07
    3.920000E+00   -1.402157E-07
    3.930000E+00   -1.364775E-07
    3.940000E+00   -1.327948E-07
    3.950000E+00   -1.291671E-07
    3.960000E+00   -1.255936E-07
    3.970000E+00   -1.220736E-07
    3.980000E+00   -1.186064E-07
    3.990000E+00   -1.151912E-07
    4.000000E+00   -1.118275E-07
    4.010000E+00   -1.085146E-07
    4.020000E+00   -1.052517E-07
    4.030000E+00   -1.020383E-07
    4.040000E+00   -9.887362E-08
    4.050000E+00   -9.575711E-08
    4.060000E+00   -9.268811E-08
    4.070000E+00   -8.966599E-08
    4.080000E+00   -8.669014E-08
    4.090000E+00   -8.375995E-08
    4.100000E+00   -8.087482E-08
    4.110000E+00   -7.803415E-08
    4.120000E+00   -7.523735E-08
    4.130000E+00   -7.248385E-08
    4.140000E+00   -6.977308E-08
    4.150000E+00   -6.710445E-08
    4.160000E+00   -6.447743E-08
    4.170000E+00   -6.189145E-08
    4.180000E+00   -5.934597E-08
    4.190000E+00   -5.684045E-08
    4.200000E+00   -5.437437E-08
    4.210000E+00   -5.194719E-08
    4.220000E+00   -4.955839E-08
    4.230000E+00   -4.720747E-08
    4.240000E+00   -4.489392E-08
    4.250000E+00   -4.261723E-08
    4.260000E+00   -4.037692E-08
    4.270000E+00   -3.817251E-08
    4.280000E+00   -3.600349E-08
    4.290000E+00   -3.386941E-08
    4.300000E+00   -3.176980E-08
    4.310000E+00   -2.970418E-08
    4.320000E+00   -2.767211E-08
    4.330000E+00   -2.567312E-08
    4.340000E+00   -2.370678E-08
    4.350000E+00   -2.177265E-08
    4.360000E+00   -1.987028E-08
    4.370000E+00   -1.799926E-08
    4.380000E+00   -1.615915E-08
    4.390000E+00   -1.434953E-08
    4.400000E+00   -1.257000E-08
    4.410000E+00   -1.082015E-08
    4.420000E+00   -9.099565E-09
    4.430000E+00   -7.407856E-09
    4.440000E+00   -5.744626E-09
    4.450000E+00   -4.109490E-09
    4.460000E+00   -2.502062E-09
    4.470000E+00   -9.219662E-10
    4.480000E+00    6.311723E-10
    4.490000E+00    2.157722E-09
    4.500000E+00    3.658047E-09
    4.510000E+00    5.132507E-09
    4.520000E+00    6.581457E-09
    4.530000E+00    8.005246E-09
    4.540000E+00    9.404222E-09
    4.550000E+00    1.077873E-08
    4.560000E+00    1.212909E-08
    4.570000E+00    1.345566E-08
    4.580000E+00    1.475875E-08
    4.590000E+00    1.603870E-08
    4.600000E+00    1.729581E-08
    4.610000E+00    1.853042E-08
    4.620000E+00    1.974282E-08
    4.630000E+00    2.093333E-08
    4.640000E+00    2.210226E-08
    4.650000E+00    2.324989E-08
    4.660000E+00    2.437654E-08
    4.670000E+00    2.548249E-08
    4.680000E+00    2.656803E-08
    4.690000E+00    2.763344E-08
    4.700000E+00    2.867901E-08
    4.710000E+00    2.970502E-08
    4.720000E+00    3.071174E-08
    4.730000E+00    3.169944E-08
    4.740000E+00    3.266839E-08
    4.750000E+00    3.361885E-08
    4.760000E+00    3.455109E-08
    4.770000E+00    3.546535E-08
    4.780000E+00    3.636190E-08
    4.790000E+00    3.724098E-08
    4.800000E+00    3.810285E-08
    4.810000E+00    3.894774E-08
    4.820000E+00    3.977590E-08
    4.830000E+00    4.058756E-08
    4.840000E+00    4.138297E-08
    4.850000E+00    4.216234E-08
    4.860000E+00    4.292592E-08
    4.870000E+00    4.367392E-08
    4.880000E+00    4.440657E-08
    4.890000E+00    4.512409E-08
    4.900000E+00    4.582669E-08
    4.910000E+00    4.651459E-08
    4.920000E+00    4.718801E-08
    4.930000E+00    4.784715E-08
    4.940000E+00    4.849221E-08
    4.950000E+00    4.912340E-08
    4.960000E+00    4.974092E-08
    4.970000E+00    5.034497E-08
    4.980000E+00    5.093574E-08
    4.990000E+00    5.151343E-08
    5.000000E+00    5.207823E-08
    5.010000E+00    5.263032E-08
    5.020000E+00    5.316989E-08
    5.030000E+00    5.369713E-08
    5.040000E+00    5.421221E-08
    5.050000E+00    5.471531E-08
    5.060000E+00    5.520660E-08
    5.070000E+00    5.568627E-08
    5.080000E+00    5.615448E-08
    5.090000E+00    5.661141E-08
    5.100000E+00    5.705721E-08
    5.110000E+00    5.749205E-08
    5.120000E+00    5.791610E-08
    5.130000E+00    5.832952E-08
    5.140000E+00    5.873246E-08
    5.150000E+00    5.912507E-08
    5.160000E+00    5.950753E-08
    5.170000E+00    5.987997E-08
    5.180000E+00    6.024254E-08
    5.190000E+00    6.059540E-08
    5.200000E+00    6.093869E-08
    5.210000E+00    6.127255E-08
    5.220000E+00    6.159713E-08
    5.230000E+00    6.191257E-08
    5.240000E+00    6.221900E-08
    5.250000E+00    6.251656E-08
    5.260000E+00    6.280539E-08
    5.270000E+00    6.308561E-08
    5.280000E+00    6.335737E-08
    5.290000E+00    6.362079E-08
    5.300000E+00    6.387599E-08
    5.310000E+00    6.412311E-08
    5.320000E+00    6.436227E-08
    5.330000E+00    6.459359E-08
    5.340000E+00    6.481719E-08
    5.350000E+00    6.503319E-08
    5.360000E+00    6.524171E-08
    5.370000E+00    6.544287E-08
    5.380000E+00    6.563677E-08
    5.390000E+00    6.582354E-08
    5.400000E+00    6.600328E-08
    5.410000E+00    6.617611E-08
    5.420000E+00    6.634214E-08
    5.430000E+00    6.650146E-08
    5.440000E+00    6.665419E-08
    5.450000E+00    6.680043E-08
    5.460000E+00    6.694029E-08
    5.470000E+00    6.707386E-08
    5.480000E+00    6.720124E-08
    5.490000E+00    6.732254E-08
    5.500000E+00    6.743786E-08
    5.510000E+00    6.754728E-08
    5.520000E+00    6.765090E-08
    5.530000E+00    6.774882E-08
    5.540000E+00    6.784113E-08
    5.550000E+00    6.792792E-08
    5.560000E+00    6.800928E-08
    5.570000E+00    6.808530E-08
    5.580000E+00    6.815606E-08
    5.590000E+00    6.822165E-08
    5.600000E+00    6.828216E-08
    5.610000E+00    6.833768E-08
    5.620000E+00    6.838827E-08
    5.630000E+00    6.843403E-08
    5.640000E+00    6.847504E-08
    5.650000E+00    6.851137E-08
    5.660000E+00    6.854310E-08
    5.670000E+00    6.857032E-08
    5.680000E+00    6.859309E-08
    5.690000E+00    6.861149E-08
    5.700000E+00    6.862560E-08
    5.710000E+00    6.863549E-08
    5.720000E+00    6.864123E-08
    5.730000E+00    6.864289E-08
    5.740000E+00    6.864054E-08
    5.750000E+00    6.863426E-08
    5.760000E+00    6.862410E-08
    5.770000E+00    6.861014E-08
    5.780000E+00    6.859245E-08
    5.790000E+00    6.857108E-08
    5.800000E+00    6.854610E-08
    5.810000E+00    6.851758E-08
    5.820000E+00    6.848558E-08
    5.830000E+00    6.845016E-08
    5.840000E+00    6.841138E-08
    5.850000E+00    6.836931E-08
    5.860000E+00    6.832399E-08
    5.870000E+00    6.827550E-08
    5.880000E+00    6.822388E-08
    5.890000E+00    6.816920E-08
    5.900000E+00    6.811150E-08
    5.910000E+00    6.805086E-08
    5.920000E+00    6.798731E-08
    5.930000E+00    6.792091E-08
    5.940000E+00    6.785172E-08
    5.950000E+00    6.777979E-08
    5.960000E+00    6.770517E-08
    5.970000E+00    6.762792E-08
    5.980000E+00    6.754807E-08
    5.990000E+00    6.746568E-08
    6.000000E+00    6.738080E-08
    6.010000E+00    6.729348E-08
    6.020000E+00    6.720376E-08
    6.030000E+00    6.711170E-08
